frequency	Tmag	Tphase
1	61.5065015	-0.421092498
1.12201845	61.5061579	-0.472455976
1.25892541	61.5063643	-0.530118468
1.41253754	61.506056	-0.594783789
1.58489319	61.5061468	-0.667368482
1.77827941	61.5059944	-0.748790989
1.99526231	61.5058023	-0.840144907
2.23872114	61.5055605	-0.942640601
2.51188643	61.5051148	-1.05761823
2.81838293	61.5048731	-1.1866516
3.16227766	61.5043909	-1.33139572
3.54813389	61.5037838	-1.49378095
3.98107171	61.5030198	-1.67595153
4.46683592	61.5019168	-1.88027912
5.01187234	61.5008477	-2.10954619
5.62341325	61.4994654	-2.36671145
6.30957344	61.4975483	-2.65510311
7.07945784	61.494995	-2.97847459
7.94328235	61.4921011	-3.34117906
8.91250938	61.4880016	-3.74764399
10	61.4832004	-4.20337555
11.2201845	61.4773742	-4.71419293
12.5892541	61.4698559	-5.28637141
14.1253754	61.4600415	-5.92687002
15.8489319	61.4482081	-6.64404679
17.7827941	61.4333899	-7.44631277
19.9526231	61.414199	-8.34245926
22.3872114	61.3906612	-9.34346978
25.1188643	61.3611916	-10.4597934
28.1838293	61.3241525	-11.702535
31.6227766	61.2784051	-13.0842885
35.4813389	61.2209571	-14.6155999
39.8107171	61.1501401	-16.3093387
44.6683592	61.0621014	-18.174446
50.1187234	60.9543089	-20.2217111
56.2341325	60.8219989	-22.4555756
63.0957344	60.6610229	-24.8790663
70.7945784	60.466317	-27.4887496
79.4328235	60.2329664	-30.2760558
89.1250938	59.9561593	-33.2258766
100	59.6309866	-36.3139445
112.201845	59.2537688	-39.5112915
125.892541	58.8208315	-42.7774719
141.253754	58.3308835	-46.0733177
158.489319	57.7836075	-49.3552874
177.827941	57.1801155	-52.580068
199.526231	56.5231932	-55.7104134
223.872114	55.8163961	-58.7118417
251.188643	55.0643108	-61.5591008
281.838293	54.271826	-64.2330166
316.227766	53.4440515	-66.7228846
354.813389	52.585852	-69.0229553
398.107171	51.7018852	-71.1346487
446.683592	50.7963347	-73.0632627
501.187234	49.8728239	-74.8157151
562.341325	48.9346059	-76.404011
630.957344	47.9842735	-77.8367771
707.945784	47.0241537	-79.1276824
794.328235	46.0561043	-80.2882908
891.250938	45.0816281	-81.3287652
1000	44.1020204	-82.2616723
1122.01845	43.1182874	-83.0968947
1258.92541	42.1312559	-83.8443053
1412.53754	41.1415796	-84.5122031
1584.89319	40.1497997	-85.1092348
1778.27941	39.1563388	-85.6425439
1995.26231	38.1615416	-86.119084
2238.72114	37.1656784	-86.544742
2511.88643	36.1689665	-86.9249106
2818.38293	35.1715812	-87.2647695
3162.27766	34.1736576	-87.5683166
3548.13389	33.1753086	-87.8399676
3981.07171	32.1766201	-88.0829786
4466.83592	31.1776621	-88.3006798
5011.87234	30.17849	-88.4958992
5623.41325	29.1791471	-88.6711523
6309.57344	28.1796691	-88.8288349
7079.45784	27.1800832	-88.9709627
7943.28235	26.180412	-89.0994712
8912.50938	25.1806724	-89.216003
10000	24.1808784	-89.3222123
11220.1845	23.1810415	-89.41942
12589.2541	22.1811697	-89.5088778
14125.3754	21.18127	-89.5918384
15848.9319	20.1813481	-89.6694122
17782.7941	19.1814077	-89.7425685
19952.6231	18.1814521	-89.8123282
22387.2114	17.1814839	-89.8795986
25118.8643	16.1815046	-89.9452529
28183.8293	15.1815153	-90.0101995
31622.7766	14.1815166	-90.0752696
35481.3389	13.1815085	-90.141355
39810.7171	12.1814905	-90.2092971
44668.3592	11.181462	-90.2800231
50118.7234	10.1814212	-90.3544661
56234.1325	9.18136604	-90.4336126
63095.7344	8.18129347	-90.5185156
70794.5784	7.1811998	-90.6102901
79432.8235	6.18107946	-90.7101683
89125.0938	5.18092677	-90.8194625
100000	4.18073343	-90.9396304
112201.845	3.18048887	-91.0722657
125892.541	2.18018028	-91.2191217
141253.754	1.17979129	-91.3821452
158489.319	0.179301026	-91.5635023
177827.941	-0.821316639	-91.7655903
199526.231	-1.82209434	-91.9910859
223872.114	-2.82307371	-92.2429721
251188.643	-3.82430677	-92.5245799
281838.293	-4.82585921	-92.8396284
316227.766	-5.82781345	-93.1922752
354813.389	-6.83027362	-93.5871639
398107.171	-7.83337065	-94.0294884
446683.592	-8.83726882	-94.5250481
501187.234	-9.84217533	-95.0803251
562341.325	-10.8483507	-95.7025511
630957.344	-11.8561226	-96.3997929
707945.784	-12.8659031	-97.1810346
794328.235	-13.8782098	-98.0562648
891250.938	-14.8936939	-99.0365655
1000000	-15.9131726	-100.134195
1122018.45	-16.9376727	-101.362667
1258925.41	-17.968483	-102.7368
1412537.54	-19.0072201	-104.272746
1584893.19	-20.0559114	-105.987957
1778279.41	-21.1170979	-107.901071
1995262.31	-22.1939625	-110.031662
2238721.14	-23.2904892	-112.399784
2511886.43	-24.4116587	-115.0252
2818382.93	-25.5636865	-117.926112
3162277.66	-26.7543025	-121.117137
3548133.89	-27.9930629	-124.606131
3981071.71	-29.2916597	-128.389261
4466835.92	-30.664145	-132.443515
5011872.34	-32.126891	-136.715509
5623413.25	-33.6979184	-141.105304
6309573.44	-35.3948795	-145.44422
7079457.84	-37.23035	-149.467794
7943282.35	-39.2021493	-152.792698
8912509.38	-41.2758692	-154.928487
10000000	-43.3606458	-155.40118
11220184.5	-45.2977081	-154.094199
12589254.1	-46.91114	-151.707249
14125375.4	-48.1314952	-149.716677
15848931.9	-49.0590668	-149.486429
17782794.1	-49.8733004	-151.515219
19952623.1	-50.7179962	-155.56048
22387211.4	-51.6664855	-161.102181
25118864.3	-52.7372322	-167.63986
28183829.3	-53.9171111	-174.798253
31622776.6	-55.1789005	-182.336881
35481338.9	-56.4920794	-190.120933
39810717.1	-57.8281603	-198.081884
44668359.2	-59.1623386	-206.183552
50118723.4	-60.4733594	-214.399498
56234132.5	-61.7429579	-222.700721
63095734.4	-62.9554919	-231.050247
70794578.4	-64.0978738	-239.401722
79432823.5	-65.1596989	-247.700286
89125093.8	-66.1334213	-255.884876
100000000	-67.0144634	-263.891402
112201845	-67.8011886	-271.656412
125892541	-68.4947121	-279.120791
141253754	-69.0985576	-286.233067
158489319	-69.6181941	-292.951952
177827941	-70.0605037	-299.247859
199526231	-70.4332373	-305.103314
223872114	-70.7445102	-310.512348
251188643	-71.002376	-315.47914
281838293	-71.214501	-320.016177
316227766	-71.3879432	-324.142261
354813389	-71.5290254	-327.880587
398107171	-71.6432862	-331.257041
446683592	-71.7354891	-334.298809
501187234	-71.8096689	-337.033289
562341325	-71.8692014	-339.487298
630957344	-71.9168826	-341.686532
707945784	-71.9550092	-343.655216
794328235	-71.9854555	-345.415906
891250938	-72.0097427	-346.98941
1000000000	-72.0290998	-348.394781
1122018450	-72.044517	-349.649363
1258925410	-72.0567892	-350.768875
1412537540	-72.0665535	-351.767512
1584893190	-72.0743192	-352.658055
1778279410	-72.0804934	-353.451988
1995262310	-72.0854005	-354.15961
2238721140	-72.0892993	-354.790141
2511886430	-72.0923958	-355.35183
2818382930	-72.0948536	-355.852046
3162277660	-72.0968032	-356.297367
3548133890	-72.0983477	-356.69366
3981071710	-72.0995694	-357.046152
4466835920	-72.1005329	-357.359502
5011872340	-72.1012896	-357.637852
5623413250	-72.1018796	-357.884886
6309573440	-72.1023344	-358.103875
7079457840	-72.1026782	-358.297721
7943282350	-72.1029292	-358.468993
8912509380	-72.1031008	-358.619965
10000000000	-72.1032023	-358.752642
11220184500	-72.103239	-358.868787
12589254100	-72.1032129	-358.969948
14125375400	-72.1031229	-359.057476
15848931900	-72.1029642	-359.132546
17782794100	-72.1027289	-359.196173
19952623100	-72.1024048	-359.24923
22387211400	-72.1019756	-359.292458
25118864300	-72.1014195	-359.326486
28183829300	-72.1007089	-359.351842
31622776600	-72.0998092	-359.368968
35481338900	-72.0986773	-359.378243
39810717100	-72.0972608	-359.379998
44668359200	-72.0954962	-359.374548
50118723400	-72.0933088	-359.362223
56234132500	-72.0906118	-359.343414
63095734400	-72.0873076	-359.318633
70794578400	-72.0832921	-359.288582
79432823500	-72.0784613	-359.254246
89125093800	-72.0727261	-359.217001
100000000000	-72.0660354	-359.178733
112201845000	-72.0584127	-359.141948
125892541000	-72.0500114	-359.10985
141253754000	-72.0411921	-359.086316
158489319000	-72.0326255	-359.075691
177827941000	-72.0254168	-359.082262
199526231000	-72.0212393	-359.109241
223872114000	-72.0224461	-359.157081
251188643000	-72.032106	-359.220983
281838293000	-72.0538824	-359.287589
316227766000	-72.0916496	-359.331164
354813389000	-72.1487353	-359.309988
398107171000	-72.2267074	-359.164334
446683592000	-72.3237141	-358.818082
501187234000	-72.4325855	-358.186676
562341325000	-72.5392451	-357.193999
630957344000	-72.622443	-355.798746
707945784000	-72.6561233	-354.025285
794328235000	-72.6152064	-351.985381
891250938000	-72.4835923	-349.872173
1000000000000	-72.2606666	-347.917628
